Distance_(mm),Gray_Value
0.0000,86.1573
0.0146,86.0894
0.0292,85.9753
0.0437,85.9945
0.0583,86.0132
0.0729,86.0121
0.0875,85.9984
0.1020,85.8065
0.1166,85.9605
0.1312,86.1310
0.1458,86.2105
0.1604,85.5647
0.1749,85.1266
0.1895,84.9298
0.2041,84.9490
0.2187,85.3070
0.2333,86.1058
0.2478,87.4934
0.2624,89.0888
0.2770,90.5373
0.2916,91.8498
0.3061,92.4836
0.3207,92.7632
0.3353,92.6743
0.3499,92.2434
0.3645,91.4435
0.3790,90.6491
0.3936,89.7336
0.4082,88.9978
0.4228,88.3459
0.4374,88.0779
0.4519,87.6261
0.4665,87.1091
0.4811,86.3734
0.4957,85.8618
0.5102,85.2895
0.5248,84.8766
0.5394,84.4890
0.5540,84.1809
0.5686,84.0252
0.5831,84.2961
0.5977,84.2111
0.6123,84.3942
0.6269,84.4803
0.6415,84.5800
0.6560,84.7401
0.6706,84.8739
0.6852,84.9693
0.6998,85.1173
0.7143,84.8284
0.7289,84.5795
0.7435,84.5378
0.7581,84.7610
0.7727,84.9726
0.7872,85.1842
0.8018,85.2950
0.8164,85.2977
0.8310,85.4786
0.8455,85.7242
0.8601,85.3953
0.8747,85.2621
0.8893,85.6480
0.9039,86.1782
0.9184,86.5471
0.9330,86.7785
0.9476,86.8668
0.9622,86.8054
0.9768,86.5938
0.9913,86.6497
1.0059,86.5691
1.0205,86.4408
1.0351,86.5016
1.0496,86.5784
1.0642,86.6552
1.0788,86.9556
1.0934,87.0395
1.1080,87.1667
1.1225,87.3794
1.1371,87.7160
1.1517,87.8651
1.1663,87.8980
1.1809,87.8262
1.1954,87.8361
1.2100,88.2939
1.2246,88.3514
1.2392,88.3366
1.2537,88.1754
1.2683,88.1908
1.2829,88.4742
1.2975,88.6765
1.3121,88.5916
1.3266,88.0707
1.3412,87.9836
1.3558,88.0652
1.3704,88.4962
1.3850,88.5592
1.3995,88.3399
1.4141,87.8810
1.4287,87.5970
1.4433,87.5302
1.4578,87.7330
1.4724,87.9616
1.4870,87.8114
1.5016,87.6107
1.5162,87.7418
1.5307,88.0022
1.5453,88.0800
1.5599,88.0378
1.5745,87.9046
1.5890,88.0565
1.6036,88.2489
1.6182,88.2451
1.6328,88.2823
1.6474,88.0559
1.6619,88.1765
1.6765,88.4808
1.6911,88.6667
1.7057,88.8849
1.7203,88.9435
1.7348,89.0269
1.7494,89.2599
1.7640,89.5203
1.7786,89.4819
1.7931,88.8646
1.8077,89.1118
1.8223,89.5022
1.8369,89.7802
1.8515,89.9951
1.8660,90.1113
1.8806,90.0389
1.8952,90.0334
1.9098,90.1886
1.9244,90.3904
1.9389,90.3734
1.9535,90.1469
1.9681,89.7939
1.9827,89.9145
1.9972,90.0488
2.0118,90.2127
2.0264,90.2061
2.0410,90.1118
2.0556,90.1776
2.0701,90.3706
2.0847,90.1486
2.0993,90.0340
2.1139,89.8871
2.1285,89.8618
2.1430,90.0329
2.1576,90.0768
2.1722,89.9912
2.1868,89.8004
2.2013,89.6096
2.2159,89.5883
2.2305,89.5345
2.2451,89.5170
2.2597,89.1431
2.2742,89.1393
2.2888,89.2418
2.3034,89.5614
2.3180,89.7319
2.3325,89.6475
2.3471,89.4688
2.3617,89.5691
2.3763,89.2769
2.3909,89.3087
2.4054,89.1815
2.4200,89.2626
2.4346,89.3470
2.4492,89.5800
2.4638,89.8591
2.4783,90.1491
2.4929,90.2922
2.5075,90.4742
2.5221,90.7549
2.5366,91.1634
2.5512,91.3350
2.5658,91.5307
2.5804,91.6146
2.5950,91.8180
2.6095,92.1431
2.6241,92.2281
2.6387,92.3092
2.6533,92.2769
2.6679,92.2769
2.6824,92.4934
2.6970,92.6804
2.7116,92.4380
2.7262,91.8032
2.7407,91.8207
2.7553,91.9962
2.7699,92.2292
2.7845,92.4298
2.7991,92.2988
2.8136,92.2473
2.8282,92.1957
2.8428,92.0373
2.8574,91.7840
2.8720,91.4035
2.8865,91.4145
2.9011,91.4984
2.9157,91.7155
2.9303,91.8914
2.9448,92.2193
2.9594,92.1924
2.9740,92.0406
2.9886,91.9803
3.0032,92.1831
3.0177,92.3202
3.0323,92.3279
3.0469,92.1924
3.0615,92.0104
3.0760,92.2670
3.0906,92.0976
3.1052,92.0389
3.1198,92.1562
3.1344,92.2089
3.1489,92.3723
3.1635,92.4479
3.1781,92.4918
3.1927,92.7599
3.2073,93.3103
3.2218,93.9660
3.2364,94.3717
3.2510,94.4731
3.2656,94.6535
3.2801,94.8361
3.2947,95.1201
3.3093,95.5384
3.3239,95.7226
3.3385,95.8750
3.3530,95.9589
3.3676,96.4457
3.3822,97.0685
3.3968,97.4337
3.4114,97.5921
3.4259,97.6661
3.4405,97.7018
3.4551,97.9293
3.4697,98.1162
3.4842,98.1173
3.4988,98.1809
3.5134,98.5285
3.5280,99.0143
3.5426,99.0757
3.5571,98.9934
3.5717,99.2220
3.5863,99.4940
3.6009,99.6102
3.6155,99.6957
3.6300,99.9123
3.6446,100.1870
3.6592,100.3536
3.6738,100.6321
3.6883,101.1458
3.7029,101.4413
3.7175,101.3141
3.7321,101.3350
3.7467,101.5395
3.7612,101.6436
3.7758,101.9101
3.7904,102.2138
3.8050,102.4572
3.8195,102.8438
3.8341,103.2747
3.8487,103.8465
3.8633,104.0466
3.8779,104.0389
3.8924,104.0466
3.9070,104.2527
3.9216,104.7533
3.9362,105.3443
3.9508,105.4995
3.9653,105.3059
3.9799,105.3416
3.9945,105.6919
4.0091,105.8109
4.0236,106.0258
4.0382,106.0044
4.0528,106.1859
4.0674,106.5680
4.0820,106.9002
4.0965,106.9863
4.1111,106.9315
4.1257,106.6294
4.1403,106.8832
4.1549,107.4326
4.1694,107.8037
4.1840,107.8706
4.1986,107.8728
4.2132,107.9644
4.2277,108.4265
4.2423,108.7100
4.2569,108.6266
4.2715,108.6606
4.2861,108.8997
4.3006,109.0439
4.3152,109.4227
4.3298,109.3827
4.3444,109.1552
4.3590,108.8021
4.3735,108.6497
4.3881,108.7396
4.4027,108.9967
4.4173,109.2599
4.4318,109.5225
4.4464,109.7127
4.4610,109.9211
4.4756,109.8668
4.4902,109.9424
4.5047,109.8333
4.5193,109.9825
4.5339,110.1524
4.5485,110.3191
4.5630,109.9753
4.5776,109.4183
4.5922,108.3553
4.6068,107.6798
4.6214,106.7939
4.6359,105.8569
4.6505,104.8279
4.6651,104.1738
4.6797,103.6480
4.6943,103.6124
4.7088,103.4792
4.7234,103.1349
4.7380,103.1025
4.7526,104.1332
4.7671,105.4698
4.7817,106.9808
4.7963,108.4830
4.8109,109.6283
4.8255,110.1497
4.8400,110.7648
4.8546,111.2664
4.8692,111.5285
4.8838,111.2752
4.8984,111.0888
4.9129,110.9852
4.9275,111.0669
4.9421,110.8273
4.9567,111.0016
4.9712,111.2039
4.9858,111.6946
5.0004,112.1842
5.0150,112.5916
5.0296,112.5203
5.0441,112.1776
5.0587,111.6513
5.0733,111.6639
5.0879,111.6557
5.1025,111.5526
5.1170,111.3240
5.1316,110.9194
5.1462,110.6086
5.1608,110.6645
5.1753,110.7429
5.1899,110.6930
5.2045,110.9150
5.2191,111.3750
5.2337,111.5510
5.2482,111.9660
5.2628,112.4474
5.2774,113.0910
5.2920,113.3399
5.3065,113.5861
5.3211,113.9978
5.3357,114.0269
5.3503,114.0093
5.3649,114.1804
5.3794,114.3257
5.3940,114.2632
5.4086,113.9973
5.4232,113.7560
5.4378,113.4501
5.4523,113.1913
5.4669,113.1447
5.4815,113.2352
5.4961,113.1776
5.5106,113.1743
5.5252,113.0312
5.5398,113.6420
5.5544,114.6793
5.5690,115.4178
5.5835,115.3766
5.5981,115.2127
5.6127,114.9315
5.6273,114.9057
5.6419,114.7308
5.6564,114.3218
5.6710,113.9539
5.6856,113.9792
5.7002,113.7593
5.7147,113.5433
5.7293,113.4819
5.7439,113.6316
5.7585,113.7714
5.7731,114.0965
5.7876,114.3547
5.8022,114.4320
5.8168,114.4512
5.8314,114.2703
5.8460,114.2067
5.8605,114.2533
5.8751,113.8300
5.8897,113.2094
5.9043,112.5450
5.9188,112.1272
5.9334,111.5927
5.9480,111.2116
5.9626,110.9485
5.9772,110.7654
5.9917,110.3668
6.0063,110.5954
6.0209,110.7127
6.0355,110.8355
6.0500,110.7511
6.0646,110.6255
6.0792,110.3591
6.0938,110.1930
6.1084,109.8109
6.1229,109.2845
6.1375,108.6398
6.1521,108.1157
6.1667,107.4978
6.1813,106.6557
6.1958,105.4523
6.2104,104.4468
6.2250,103.2966
6.2396,103.0181
6.2541,103.0115
6.2687,103.2237
6.2833,103.5296
6.2979,103.9912
6.3125,104.5828
6.3270,104.8646
6.3416,104.6760
6.3562,104.3624
6.3708,103.8268
6.3854,103.4693
6.3999,103.0746
6.4145,102.5576
6.4291,101.8311
6.4437,100.9731
6.4582,99.9550
6.4728,99.0159
6.4874,97.5817
6.5020,96.0932
6.5166,94.6354
6.5311,93.2747
6.5457,91.8717
6.5603,91.0630
6.5749,90.0143
6.5894,89.0981
6.6040,88.2982
6.6186,88.3470
6.6332,88.6924
6.6478,88.9298
6.6623,88.1135
6.6769,87.1502
6.6915,85.4479
6.7061,85.1283
6.7207,84.7089
6.7352,84.0159
6.7498,82.6815
6.7644,81.8476
6.7790,80.8783
6.7935,80.2067
6.8081,79.1513
6.8227,78.3355
6.8373,77.4309
6.8519,77.0581
6.8664,76.4616
6.8810,75.6902
6.8956,75.0581
6.9102,74.8503
6.9248,74.3306
6.9393,74.2961
6.9539,74.5685
6.9685,74.9260
6.9831,74.8355
6.9976,74.5521
7.0122,73.9803
7.0268,73.9441
7.0414,73.6009
7.0560,73.1354
7.0705,72.4830
7.0851,72.0488
7.0997,71.3048
7.1143,70.8399
7.1289,70.5110
7.1434,70.4616
7.1580,70.5751
7.1726,70.7604
7.1872,70.5592
7.2017,70.3180
7.2163,69.9644
7.2309,69.7632
7.2455,69.5121
7.2601,69.4896
7.2746,68.8914
7.2892,68.4095
7.3038,67.9084
7.3184,67.7681
7.3329,67.6398
7.3475,67.1891
7.3621,66.5428
7.3767,66.1299
7.3913,65.6935
7.4058,65.4879
7.4204,65.2050
7.4350,64.7922
7.4496,64.2149
7.4642,63.9830
7.4787,63.4254
7.4933,63.0088
7.5079,62.5938
7.5225,62.6409
7.5370,62.6782
7.5516,62.5954
7.5662,62.0789
7.5808,61.5219
7.5954,60.9693
7.6099,60.9337
7.6245,60.6491
7.6391,60.8081
7.6537,60.5943
7.6683,60.3810
7.6828,60.3734
7.6974,60.9298
7.7120,61.5230
7.7266,62.0663
7.7411,62.3503
7.7557,62.3909
7.7703,62.4463
7.7849,62.4172
7.7995,62.3432
7.8140,62.3350
7.8286,62.4326
7.8432,62.4512
7.8578,62.2577
7.8724,62.0049
7.8869,61.7440
7.9015,61.6469
7.9161,61.6393
7.9307,61.6442
7.9452,61.7736
7.9598,61.9364
7.9744,62.0132
7.9890,62.1064
8.0036,62.1212
8.0181,61.9633
8.0327,61.9150
8.0473,61.5855
8.0619,61.3015
8.0764,61.1590
8.0910,60.7758
8.1056,60.4084
8.1202,59.9984
8.1348,59.6102
8.1493,59.3185
8.1639,59.4265
8.1785,59.4167
8.1931,59.2089
8.2077,58.9380
8.2222,58.6212
8.2368,58.4134
8.2514,58.4057
8.2660,58.3509
8.2805,58.1891
8.2951,58.3882
8.3097,58.8904
8.3243,59.4271
8.3389,60.1261
8.3534,60.6064
8.3680,60.8246
8.3826,60.9594
8.3972,61.2440
8.4118,61.2971
8.4263,61.1080
8.4409,60.9770
8.4555,61.1480
8.4701,61.3920
8.4846,61.7083
8.4992,61.6250
8.5138,61.4117
8.5284,61.1634
8.5430,60.9912
8.5575,60.8640
8.5721,61.0532
8.5867,60.9836
8.6013,61.0757
8.6159,61.0959
8.6304,61.0422
8.6450,60.8706
8.6596,60.8602
8.6742,60.9764
8.6887,61.1266
8.7033,61.6234
8.7179,61.9671
8.7325,61.7675
8.7471,61.4254
8.7616,61.4046
8.7762,61.5241
8.7908,61.4024
8.8054,61.2950
8.8199,61.2917
8.8345,61.2089
8.8491,61.1886
8.8637,61.2796
8.8783,61.1694
8.8928,60.9989
8.9074,60.9276
8.9220,60.9995
8.9366,61.3580
8.9512,61.8448
8.9657,62.0981
8.9803,62.1738
8.9949,62.3575
9.0095,62.3618
9.0240,62.3251
9.0386,62.0280
9.0532,61.8004
9.0678,61.7977
9.0824,62.2144
9.0969,62.6957
9.1115,62.9276
9.1261,62.9315
9.1407,62.7122
9.1553,62.7582
9.1698,62.7511
9.1844,62.7725
9.1990,62.5811
9.2136,62.2862
9.2281,62.2473
9.2427,62.3147
9.2573,62.2056
9.2719,61.6091
9.2865,61.1924
9.3010,60.8799
9.3156,60.4046
9.3302,60.1047
9.3448,59.7412
9.3594,59.2390
9.3739,58.8130
9.3885,58.6420
9.4031,58.3734
9.4177,58.2385
9.4322,57.9945
9.4468,57.5691
9.4614,57.3454
9.4760,57.1875
9.4906,57.2209
9.5051,57.1562
9.5197,57.2955
9.5343,57.3114
9.5489,57.2357
9.5634,56.9622
9.5780,55.9731
9.5926,54.8454
9.6072,53.8947
9.6218,53.2242
9.6363,52.5433
9.6509,51.9978
9.6655,51.4523
9.6801,51.1875
9.6947,50.9485
9.7092,50.4693
9.7238,49.7719
9.7384,49.0959
9.7530,48.7664
9.7675,48.5768
9.7821,48.4748
9.7967,48.3202
9.8113,47.8679
9.8259,47.5466
9.8404,46.8580
9.8550,46.6486
9.8696,46.4402
9.8842,46.4561
9.8988,46.4254
9.9133,46.3383
9.9279,46.1754
9.9425,46.1793
9.9571,45.7675
9.9716,45.4468
9.9862,45.3624
10.0008,45.3739
10.0154,45.2401
10.0300,44.8980
10.0445,44.6129
10.0591,44.4134
10.0737,44.1979
10.0883,44.2478
10.1029,44.1513
10.1174,44.1195
10.1320,44.0625
10.1466,44.0795
10.1612,44.4117
10.1757,44.6393
10.1903,44.4759
10.2049,44.1239
10.2195,43.8399
10.2341,43.6223
10.2486,43.6842
10.2632,43.8328
10.2778,43.6760
10.2924,43.4688
10.3069,43.1897
10.3215,43.2325
10.3361,43.2127
10.3507,43.0652
10.3653,42.9578
10.3798,42.8306
10.3944,42.7045
10.4090,42.5970
10.4236,42.5351
10.4382,42.4265
10.4527,42.5789
10.4673,42.4671
10.4819,42.1140
10.4965,41.6886
10.5110,41.4600
10.5256,41.4386
10.5402,41.5444
10.5548,41.5208
10.5694,41.1716
10.5839,40.5872
10.5985,40.2939
10.6131,40.1754
10.6277,40.0691
10.6423,40.0543
10.6568,39.4128
10.6714,38.9825
10.6860,38.6842
10.7006,38.5762
10.7151,38.2812
10.7297,37.8531
10.7443,37.4753
10.7589,37.2714
10.7735,37.3607
10.7880,37.7072
10.8026,38.5828
10.8172,39.6798
10.8318,40.6360
10.8464,41.2675
10.8609,41.7116
10.8755,42.0811
10.8901,41.7714
10.9047,41.2122
10.9192,40.4485
10.9338,39.9331
10.9484,39.7193
10.9630,39.4923
10.9776,39.0088
10.9921,38.3114
11.0067,37.7862
11.0213,37.5965
11.0359,37.5000
11.0504,37.6870
11.0650,37.5872
11.0796,37.5943
11.0942,38.0016
11.1088,38.5784
11.1233,38.4616
11.1379,38.3202
11.1525,38.0252
11.1671,37.8459
11.1817,37.5137
11.1962,37.1749
11.2108,37.1195
11.2254,37.2067
11.2400,37.2785
11.2545,37.3602
11.2691,37.0795
11.2837,36.9123
11.2983,36.9348
11.3129,37.0746
11.3274,37.2061
11.3420,37.3109
11.3566,36.8065
11.3712,36.5685
11.3858,36.3602
11.4003,36.4737
11.4149,36.5641
11.4295,36.7999
11.4441,36.9013
11.4586,37.1091
11.4732,36.9594
11.4878,37.1003
11.5024,36.9649
11.5170,36.7325
11.5315,36.2840
11.5461,36.0680
11.5607,35.9079
11.5753,35.7922
11.5899,35.2193
11.6044,35.0296
11.6190,34.7023
11.6336,34.5587
11.6482,34.2560
11.6627,33.8487
11.6773,33.5757
11.6919,33.5422
11.7065,33.7390
11.7211,34.3065
11.7356,34.8026
11.7502,34.8728
11.7648,34.6217
11.7794,34.3514
11.7939,34.4825
11.8085,35.0757
11.8231,35.4693
11.8377,35.0143
11.8523,34.5828
11.8668,35.4967
11.8814,37.4424
11.8960,38.4868
11.9106,38.3004
11.9252,37.5428
11.9397,36.1223
11.9543,34.7867
11.9689,33.4013
11.9835,32.4896
11.9980,31.9770
12.0126,31.9896
12.0272,31.9874
12.0418,31.7023
12.0564,31.6118
12.0709,31.3520
12.0855,30.8240
12.1001,30.4485
12.1147,30.3755
12.1293,30.3602
12.1438,30.1919
12.1584,30.0537
12.1730,30.1179
12.1876,30.4375
12.2021,30.8766
12.2167,31.0225
12.2313,30.8520
12.2459,30.9090
12.2605,31.4572
12.2750,31.9375
12.2896,31.9474
12.3042,32.0356
12.3188,32.1584
12.3334,32.5148
12.3479,32.6491
12.3625,32.5548
12.3771,32.6700
12.3917,32.9062
12.4062,33.0225
12.4208,32.9753
12.4354,32.9874
12.4500,33.2034
12.4646,33.3213
12.4791,33.7248
12.4937,34.3448
12.5083,35.0428
12.5229,35.3246
12.5374,35.6387
12.5520,36.2319
12.5666,37.2056
12.5812,37.8503
12.5958,37.8130
12.6103,37.3120
12.6249,36.7423
12.6395,36.2873
12.6541,35.5905
12.6687,34.9951
12.6832,34.4386
12.6978,33.8377
12.7124,33.5027
12.7270,33.0543
12.7415,32.8147
12.7561,32.5296
12.7707,32.3459
12.7853,32.3969
12.7999,32.7336
12.8144,33.2774
12.8290,34.0219
12.8436,34.7632
12.8582,35.3887
12.8728,36.0932
12.8873,36.9178
12.9019,37.1650
12.9165,36.8821
12.9311,36.6349
12.9456,36.7007
12.9602,36.6228
12.9748,36.6420
12.9894,36.6935
13.0040,36.5570
13.0185,36.2007
13.0331,35.4857
13.0477,34.3586
13.0623,33.1464
13.0769,32.1979
13.0914,31.7747
13.1060,31.8438
13.1206,31.9852
13.1352,32.1579
13.1497,32.0373
13.1643,32.1645
13.1789,32.4836
13.1935,32.6497
13.2081,32.5927
13.2226,32.4742
13.2372,32.5894
13.2518,32.6299
13.2664,32.9682
13.2809,33.5154
13.2955,33.9452
13.3101,34.4276
13.3247,34.8004
13.3393,34.6831
13.3538,34.3810
13.3684,33.8553
13.3830,33.4298
13.3976,33.1206
13.4122,32.8706
13.4267,32.7270
13.4413,32.7100
13.4559,32.8218
13.4705,32.8794
13.4850,33.0581
13.4996,32.9995
13.5142,32.7621
13.5288,32.8163
13.5434,32.8646
13.5579,33.0773
13.5725,33.1639
13.5871,33.1223
13.6017,32.9655
13.6163,32.7599
13.6308,32.6568
13.6454,32.6930
13.6600,32.7445
13.6746,32.7385
13.6891,32.5570
13.7037,32.5367
13.7183,32.6508
13.7329,32.9052
13.7475,33.2341
13.7620,33.2763
13.7766,33.3509
13.7912,33.4874
13.8058,33.7484
13.8204,34.0603
13.8349,34.3514
13.8495,34.5702
13.8641,34.7505
13.8787,34.8958
13.8932,34.7928
13.9078,34.5110
13.9224,34.1184
13.9370,33.9704
13.9516,34.0959
13.9661,34.3997
13.9807,34.6146
13.9953,34.9189
14.0099,35.3114
14.0244,35.7845
14.0390,36.4391
14.0536,36.6886
14.0682,36.6765
14.0828,36.4238
14.0973,36.3865
14.1119,36.4666
14.1265,36.9145
14.1411,37.1864
14.1557,37.1206
14.1702,37.4123
14.1848,37.5077
14.1994,37.4720
14.2140,37.5323
14.2285,38.0718
14.2431,38.3755
14.2577,38.4830
14.2723,38.3098
14.2869,38.2851
14.3014,38.1634
14.3160,38.0658
14.3306,38.1113
14.3452,38.6053
14.3598,39.2171
14.3743,39.5049
14.3889,39.7615
14.4035,40.0762
14.4181,40.4995
14.4326,41.2204
14.4472,41.7802
14.4618,42.2116
14.4764,42.3701
14.4910,42.6683
14.5055,42.8772
14.5201,43.0729
14.5347,43.6184
14.5493,44.6897
14.5639,45.1272
14.5784,44.8975
14.5930,44.6721
14.6076,44.7928
14.6222,44.7023
14.6367,45.0236
14.6513,45.4370
14.6659,45.3498
14.6805,45.0241
14.6951,44.7336
14.7096,44.4446
14.7242,44.4035
14.7388,44.6255
14.7534,45.0066
14.7679,45.0773
14.7825,45.2001
14.7971,45.4200
14.8117,45.7336
14.8263,45.9304
14.8408,45.9068
14.8554,45.8904
14.8700,45.9101
14.8846,46.1957
14.8992,46.4940
14.9137,46.6886
14.9283,47.1513
14.9429,47.7401
14.9575,48.0175
14.9720,48.3662
14.9866,48.5696
15.0012,49.0526
15.0158,49.2138
15.0304,49.0439
15.0449,49.2149
15.0595,49.3355
15.0741,49.0488
15.0887,48.5768
15.1033,49.3596
15.1178,50.3882
15.1324,51.1941
15.1470,51.8657
15.1616,52.6579
15.1761,53.5724
15.1907,54.6820
15.2053,55.8026
15.2199,56.1283
15.2345,56.1886
15.2490,56.3130
15.2636,56.4139
15.2782,56.5247
15.2928,56.8021
15.3074,57.1091
15.3219,57.4172
15.3365,57.5905
15.3511,57.4803
15.3657,57.3213
15.3802,57.2692
15.3948,57.8339
15.4094,58.2138
15.4240,58.6727
15.4386,58.7560
15.4531,58.7341
15.4677,58.5899
15.4823,58.7242
15.4969,58.7237
15.5114,58.9194
15.5260,58.7116
15.5406,57.9446
15.5552,56.9282
15.5698,56.7862
15.5843,56.8986
15.5989,57.0800
15.6135,56.8377
15.6281,56.6765
15.6427,56.9496
15.6572,57.2029
15.6718,57.7122
15.6864,57.8032
15.7010,57.9457
15.7155,58.4934
15.7301,58.4304
15.7447,58.6305
15.7593,58.6129
15.7739,58.3289
15.7884,57.8311
15.8030,57.7182
15.8176,57.2621
15.8322,56.8509
15.8468,56.7851
15.8613,57.0740
15.8759,57.1623
15.8905,57.4857
15.9051,57.1343
15.9196,57.1129
15.9342,57.0811
15.9488,57.2127
15.9634,57.3470
15.9780,57.7220
15.9925,57.4413
16.0071,56.9068
16.0217,56.5959
16.0363,57.0987
16.0508,57.5702
16.0654,57.8355
16.0800,57.7955
16.0946,57.6508
16.1092,57.7292
16.1237,57.8914
16.1383,58.3328
16.1529,58.6173
16.1675,58.8553
16.1821,59.1234
16.1966,59.1212
16.2112,59.0762
16.2258,58.7582
16.2404,58.7341
16.2549,58.8163
16.2695,59.3975
16.2841,59.5417
16.2987,59.0652
16.3133,58.7577
16.3278,58.7626
16.3424,58.5811
16.3570,58.3755
16.3716,58.1140
16.3862,58.0378
16.4007,57.9616
16.4153,58.2467
16.4299,58.4419
16.4445,58.6765
16.4590,58.8586
16.4736,59.1107
16.4882,59.2303
16.5028,59.4035
16.5174,59.6365
16.5319,59.6601
16.5465,59.7155
16.5611,59.7785
16.5757,59.7407
16.5903,59.6656
16.6048,59.3624
16.6194,59.4792
16.6340,59.3684
16.6486,59.4896
16.6631,59.8026
16.6777,59.9857
16.6923,60.2434
16.7069,60.6206
16.7215,60.7314
16.7360,60.9380
16.7506,61.0713
16.7652,61.0269
16.7798,61.0576
16.7943,61.3300
16.8089,61.6129
16.8235,61.7138
16.8381,61.4232
16.8527,61.3372
16.8672,61.1985
16.8818,61.5861
16.8964,61.9698
16.9110,62.3640
16.9256,62.5033
16.9401,62.5066
16.9547,62.6349
16.9693,63.3520
16.9839,64.3125
16.9984,65.0998
17.0130,65.6859
17.0276,66.1387
17.0422,66.2780
17.0568,66.3070
17.0713,66.0548
17.0859,65.8750
17.1005,66.1162
17.1151,66.5800
17.1297,67.0044
17.1442,67.2050
17.1588,67.3421
17.1734,67.6645
17.1880,67.4879
17.2025,67.5088
17.2171,67.3931
17.2317,67.2774
17.2463,67.1985
17.2609,67.3322
17.2754,67.2802
17.2900,67.3487
17.3046,67.2325
17.3192,67.1820
17.3338,67.2231
17.3483,67.5828
17.3629,67.7248
17.3775,67.7807
17.3921,67.5422
17.4066,67.5587
17.4212,67.2325
17.4358,67.5576
17.4504,67.9534
17.4650,68.2396
17.4795,68.2955
17.4941,68.8684
17.5087,69.4052
17.5233,69.6678
17.5378,69.6743
17.5524,69.9742
17.5670,70.4035
17.5816,70.6546
17.5962,70.6365
17.6107,70.8158
17.6253,71.2637
17.6399,71.7643
17.6545,71.9644
17.6691,72.5219
17.6836,72.5164
17.6982,72.4046
17.7128,72.6727
17.7274,73.6387
17.7419,74.8037
17.7565,75.6480
17.7711,76.0027
17.7857,76.1206
17.8003,75.9539
17.8148,76.5735
17.8294,77.2993
17.8440,78.0806
17.8586,78.7303
17.8732,79.7681
17.8877,80.9896
17.9023,82.0049
17.9169,82.8936
17.9315,83.5164
17.9460,83.5225
17.9606,82.9885
17.9752,81.7029
17.9898,80.6661
18.0044,79.5159
18.0189,79.2648
18.0335,79.2018
18.0481,79.5521
18.0627,79.6020
18.0773,79.8766
18.0918,80.1250
18.1064,80.3443
18.1210,81.0389
18.1356,81.8772
18.1501,82.3832
18.1647,82.9655
18.1793,83.8147
18.1939,85.1617
18.2085,86.1634
18.2230,86.7911
18.2376,87.1031
18.2522,87.7275
18.2668,88.2489
18.2813,88.9649
18.2959,89.5718
18.3105,90.2769
18.3251,91.3300
18.3397,92.4095
18.3542,93.0154
18.3688,93.9287
18.3834,94.9989
18.3980,95.5910
18.4126,96.2884
18.4271,97.5751
18.4417,98.9951
18.4563,99.9518
18.4709,101.1754
18.4854,102.5718
18.5000,103.9611
18.5146,104.6508
18.5292,105.1535
18.5438,105.7127
18.5583,106.3805
18.5729,106.9474
18.5875,107.4490
18.6021,108.2078
18.6167,109.1234
