Distance_(mm),Gray_Value
0.0000,114.466
0.0143,115.216
0.0287,116.538
0.0430,117.846
0.0573,119.521
0.0717,121.107
0.0860,122.590
0.1004,124.030
0.1147,125.603
0.1290,127.267
0.1434,128.588
0.1577,129.094
0.1720,129.359
0.1864,129.385
0.2007,128.974
0.2150,128.271
0.2294,127.509
0.2437,126.515
0.2580,125.744
0.2724,125.021
0.2867,124.870
0.3011,124.263
0.3154,124.100
0.3297,124.481
0.3441,124.806
0.3584,125.167
0.3727,124.741
0.3871,124.645
0.4014,124.265
0.4157,123.774
0.4301,123.331
0.4444,122.846
0.4588,122.412
0.4731,122.716
0.4874,122.776
0.5018,122.793
0.5161,122.889
0.5304,122.919
0.5448,122.827
0.5591,122.955
0.5734,123.496
0.5878,123.763
0.6021,124.487
0.6165,125.434
0.6308,127.107
0.6451,128.444
0.6595,129.782
0.6738,130.417
0.6881,130.694
0.7025,130.519
0.7168,130.350
0.7311,130.130
0.7455,130.081
0.7598,129.451
0.7741,128.989
0.7885,128.494
0.8028,127.752
0.8172,127.175
0.8315,125.870
0.8458,124.115
0.8602,122.515
0.8745,121.316
0.8888,121.192
0.9032,121.177
0.9175,121.968
0.9318,122.588
0.9462,123.596
0.9605,124.502
0.9749,125.744
0.9892,126.853
1.0035,128.201
1.0179,129.519
1.0322,130.303
1.0465,130.288
1.0609,130.023
1.0752,129.088
1.0895,128.359
1.1039,126.237
1.1182,124.365
1.1326,122.438
1.1469,121.107
1.1612,119.874
1.1756,119.786
1.1899,120.056
1.2042,120.821
1.2186,121.438
1.2329,123.028
1.2472,125.479
1.2616,127.639
1.2759,129.137
1.2902,130.628
1.3046,131.825
1.3189,132.944
1.3333,133.056
1.3476,132.748
1.3619,132.098
1.3763,131.368
1.3906,130.412
1.4049,129.261
1.4193,127.987
1.4336,127.560
1.4479,126.709
1.4623,125.645
1.4766,124.609
1.4910,124.451
1.5053,123.955
1.5196,123.214
1.5340,122.656
1.5483,122.910
1.5626,123.688
1.5770,124.583
1.5913,125.154
1.6056,125.549
1.6200,125.846
1.6343,126.239
1.6486,126.355
1.6630,126.585
1.6773,126.513
1.6917,126.502
1.7060,125.944
1.7203,125.147
1.7347,124.295
1.7490,123.868
1.7633,123.620
1.7777,123.288
1.7920,123.519
1.8063,124.667
1.8207,126.447
1.8350,129.387
1.8494,132.094
1.8637,134.318
1.8780,136.032
1.8924,137.528
1.9067,138.812
1.9210,140.372
1.9354,141.788
1.9497,142.647
1.9640,142.797
1.9784,142.297
1.9927,141.175
2.0071,139.788
2.0214,137.579
2.0357,135.199
2.0501,132.348
2.0644,130.532
2.0787,128.720
2.0931,127.269
2.1074,125.885
2.1217,125.353
2.1361,124.487
2.1504,123.872
2.1647,124.064
2.1791,125.004
2.1934,126.325
2.2078,128.038
2.2221,129.959
2.2364,131.966
2.2508,133.212
2.2651,134.214
2.2794,135.177
2.2938,136.397
2.3081,137.660
2.3224,138.722
2.3368,139.303
2.3511,139.746
2.3655,139.859
2.3798,140.141
2.3941,140.081
2.4085,140.034
2.4228,138.677
2.4371,136.579
2.4515,133.404
2.4658,130.064
2.4801,127.628
2.4945,127.090
2.5088,126.111
2.5231,125.459
2.5375,124.951
2.5518,124.765
2.5662,124.303
2.5805,124.310
2.5948,124.592
2.6092,125.111
2.6235,124.778
2.6378,124.940
2.6522,125.491
2.6665,127.047
2.6808,129.173
2.6952,131.220
2.7095,132.882
2.7239,134.034
2.7382,134.628
2.7525,135.160
2.7669,135.259
2.7812,134.434
2.7955,131.477
2.8099,127.872
2.8242,123.840
2.8385,120.047
2.8529,117.470
2.8672,115.981
2.8816,115.077
2.8959,114.942
2.9102,115.154
2.9246,115.254
2.9389,115.239
2.9532,115.543
2.9676,115.506
2.9819,115.885
2.9962,115.442
3.0106,115.397
3.0249,115.038
3.0392,114.844
3.0536,114.786
3.0679,114.923
3.0823,114.573
3.0966,114.301
3.1109,113.502
3.1253,112.934
3.1396,112.453
3.1539,112.034
3.1683,111.667
3.1826,110.904
3.1969,110.415
3.2113,110.182
3.2256,109.801
3.2400,109.618
3.2543,109.041
3.2686,108.162
3.2830,107.761
3.2973,107.615
3.3116,107.194
3.3260,106.660
3.3403,105.658
3.3546,105.244
3.3690,104.818
3.3833,104.126
3.3977,103.318
3.4120,102.479
3.4263,101.677
3.4407,100.748
3.4550,99.709
3.4693,99.062
3.4837,98.085
3.4980,97.128
3.5123,96.476
3.5267,96.109
3.5410,95.338
3.5553,94.835
3.5697,93.741
3.5840,93.299
3.5984,92.342
3.6127,91.882
3.6270,91.282
3.6414,90.891
3.6557,90.207
3.6700,89.754
3.6844,89.118
3.6987,88.726
3.7130,87.880
3.7274,87.092
3.7417,86.348
3.7561,85.767
3.7704,85.028
3.7847,84.545
3.7991,83.278
3.8134,82.895
3.8277,82.019
3.8421,81.412
3.8564,80.921
3.8707,80.192
3.8851,79.432
3.8994,78.669
3.9137,78.141
3.9281,77.658
3.9424,76.934
3.9568,76.513
3.9711,76.353
3.9854,76.182
3.9998,75.504
4.0141,75.103
4.0284,74.615
4.0428,73.835
4.0571,73.269
4.0714,72.861
4.0858,72.506
4.1001,71.816
4.1145,71.105
4.1288,70.635
4.1431,69.906
4.1575,69.015
4.1718,68.263
4.1861,67.731
4.2005,67.427
4.2148,66.947
4.2291,66.404
4.2435,65.891
4.2578,65.021
4.2722,64.645
4.2865,64.222
4.3008,63.808
4.3152,63.410
4.3295,63.197
4.3438,62.976
4.3582,62.491
4.3725,61.962
4.3868,61.658
4.4012,61.194
4.4155,60.831
4.4298,60.671
4.4442,60.509
4.4585,60.011
4.4729,59.549
4.4872,59.468
4.5015,59.588
4.5159,59.021
4.5302,58.269
4.5445,57.429
4.5589,56.863
4.5732,56.447
4.5875,56.793
4.6019,57.041
4.6162,56.968
4.6306,56.870
4.6449,57.021
4.6592,57.203
4.6736,57.447
4.6879,57.442
4.7022,57.393
4.7166,56.761
4.7309,56.865
4.7452,56.793
4.7596,56.712
4.7739,56.596
4.7883,56.199
4.8026,56.028
4.8169,55.778
4.8313,54.887
4.8456,54.239
4.8599,53.712
4.8743,53.641
4.8886,53.355
4.9029,52.846
4.9173,52.816
4.9316,52.917
4.9459,52.831
4.9603,52.335
4.9746,52.066
4.9890,51.893
5.0033,51.513
5.0176,51.496
5.0320,51.639
5.0463,51.412
5.0606,50.568
5.0750,50.092
5.0893,49.731
5.1036,49.395
5.1180,48.709
5.1323,48.212
5.1467,47.795
5.1610,47.744
5.1753,46.966
5.1897,47.137
5.2040,47.192
5.2183,47.184
5.2327,47.128
5.2470,46.872
5.2613,46.325
5.2757,46.135
5.2900,45.863
5.3043,45.921
5.3187,45.932
5.3330,45.848
5.3474,46.122
5.3617,46.165
5.3760,45.998
5.3904,46.154
5.4047,45.880
5.4190,45.427
5.4334,44.880
5.4477,44.536
5.4620,44.338
5.4764,44.246
5.4907,44.011
5.5051,44.006
5.5194,43.624
5.5337,43.286
5.5481,43.237
5.5624,43.160
5.5767,43.024
5.5911,43.113
5.6054,43.028
5.6197,43.103
5.6341,42.697
5.6484,42.694
5.6628,43.318
5.6771,43.568
5.6914,43.588
5.7058,43.564
5.7201,43.427
5.7344,43.331
5.7488,43.436
5.7631,43.451
5.7774,43.276
5.7918,43.252
5.8061,43.286
5.8204,43.481
5.8348,43.472
5.8491,43.632
5.8635,43.592
5.8778,43.226
5.8921,43.222
5.9065,43.177
5.9208,43.323
5.9351,43.500
5.9495,43.558
5.9638,43.271
5.9781,43.468
5.9925,43.026
6.0068,42.776
6.0212,42.761
6.0355,42.423
6.0498,41.605
6.0642,41.154
6.0785,41.404
6.0928,41.421
6.1072,41.293
6.1215,41.004
6.1358,41.004
6.1502,40.861
6.1645,40.795
6.1789,40.406
6.1932,40.021
6.2075,39.831
6.2219,39.842
6.2362,39.878
6.2505,39.953
6.2649,39.861
6.2792,40.120
6.2935,40.639
6.3079,41.318
6.3222,41.301
6.3365,41.951
6.3509,42.487
6.3652,42.605
6.3796,42.632
6.3939,42.739
6.4082,42.912
6.4226,42.893
6.4369,42.823
6.4512,42.818
6.4656,42.902
6.4799,43.182
6.4942,43.115
6.5086,43.028
6.5229,42.874
6.5373,42.714
6.5516,42.694
6.5659,42.891
6.5803,42.921
6.5946,42.677
6.6089,42.130
6.6233,41.966
6.6376,42.100
6.6519,42.468
6.6663,42.776
6.6806,42.938
6.6949,43.096
6.7093,43.233
6.7236,43.705
6.7380,44.276
6.7523,44.167
6.7666,43.932
6.7810,43.947
6.7953,44.011
6.8096,44.442
6.8240,44.286
6.8383,44.316
6.8526,44.583
6.8670,44.485
6.8813,44.318
6.8957,44.049
6.9100,43.667
6.9243,43.252
6.9387,43.038
6.9530,42.286
6.9673,41.818
6.9817,41.637
6.9960,41.786
7.0103,42.100
7.0247,42.218
7.0390,42.904
7.0534,43.404
7.0677,43.295
7.0820,43.128
7.0964,42.889
7.1107,42.904
7.1250,42.823
7.1394,42.588
7.1537,42.585
7.1680,42.944
7.1824,43.440
7.1967,43.684
7.2110,43.647
7.2254,43.500
7.2397,43.274
7.2541,43.051
7.2684,43.088
7.2827,43.066
7.2971,42.974
7.3114,42.748
7.3257,42.974
7.3401,42.863
7.3544,42.823
7.3687,42.660
7.3831,42.271
7.3974,42.152
7.4118,41.752
7.4261,41.735
7.4404,41.643
7.4548,41.524
7.4691,41.385
7.4834,41.045
7.4978,40.840
7.5121,40.904
7.5264,40.793
7.5408,40.361
7.5551,40.094
7.5694,40.122
7.5838,39.906
7.5981,39.513
7.6125,39.613
7.6268,39.494
7.6411,39.791
7.6555,39.754
7.6698,39.474
7.6841,39.184
7.6985,38.707
7.7128,38.209
7.7271,38.105
7.7415,38.075
7.7558,37.791
7.7702,37.568
7.7845,37.793
7.7988,38.323
7.8132,38.312
7.8275,38.438
7.8418,38.543
7.8562,38.600
7.8705,38.665
7.8848,38.662
7.8992,38.506
7.9135,38.252
7.9279,37.917
7.9422,37.600
7.9565,37.509
7.9709,37.551
7.9852,37.686
7.9995,37.662
8.0139,37.607
8.0282,37.598
8.0425,37.288
8.0569,37.438
8.0712,37.402
8.0855,37.502
8.0999,37.624
8.1142,37.419
8.1286,37.199
8.1429,36.887
8.1572,36.893
8.1716,36.923
8.1859,37.124
8.2002,37.224
8.2146,37.109
8.2289,37.387
8.2432,37.831
8.2576,38.451
8.2719,38.861
8.2863,38.996
8.3006,39.160
8.3149,39.252
8.3293,39.209
8.3436,39.038
8.3579,39.427
8.3723,39.714
8.3866,39.630
8.4009,39.288
8.4153,39.318
8.4296,39.797
8.4440,40.156
8.4583,40.306
8.4726,40.047
8.4870,39.976
8.5013,39.972
8.5156,40.222
8.5300,40.338
8.5443,40.697
8.5586,40.581
8.5730,40.517
8.5873,40.280
8.6016,40.043
8.6160,39.872
8.6303,39.748
8.6447,39.474
8.6590,39.705
8.6733,39.842
8.6877,40.825
8.7020,42.118
8.7163,42.780
8.7307,43.513
8.7450,43.964
8.7593,44.528
8.7737,44.603
8.7880,44.716
8.8024,44.626
8.8167,44.788
8.8310,45.045
8.8454,44.500
8.8597,44.577
8.8740,44.329
8.8884,43.891
8.9027,44.085
8.9170,44.577
8.9314,44.761
8.9457,44.613
8.9600,43.882
8.9744,43.293
8.9887,43.190
9.0031,43.427
9.0174,42.882
9.0317,41.944
9.0461,40.806
9.0604,40.109
9.0747,39.865
9.0891,40.579
9.1034,40.925
9.1177,40.848
9.1321,40.870
9.1464,41.021
9.1608,40.853
9.1751,40.532
9.1894,40.536
9.2038,40.306
9.2181,40.124
9.2324,39.714
9.2468,39.429
9.2611,39.338
9.2754,39.506
9.2898,39.222
9.3041,39.017
9.3185,38.697
9.3328,38.462
9.3471,38.045
9.3615,37.955
9.3758,38.310
9.3901,38.598
9.4045,38.652
9.4188,38.457
9.4331,38.451
9.4475,38.618
9.4618,39.124
9.4761,39.908
9.4905,40.451
9.5048,41.276
9.5192,41.489
9.5335,41.321
9.5478,41.259
9.5622,41.051
9.5765,41.393
9.5908,41.876
9.6052,42.415
9.6195,42.733
9.6338,42.686
9.6482,42.675
9.6625,42.803
9.6769,43.098
9.6912,42.801
9.7055,42.502
9.7199,42.464
9.7342,42.684
9.7485,43.028
9.7629,43.278
9.7772,43.588
9.7915,43.641
9.8059,43.511
9.8202,43.449
9.8346,43.752
9.8489,43.810
9.8632,43.791
9.8776,43.983
9.8919,43.564
9.9062,43.688
9.9206,44.066
9.9349,43.575
9.9492,42.504
9.9636,41.761
9.9779,41.630
9.9922,42.615
10.0066,42.991
10.0209,42.953
10.0353,42.756
10.0496,42.889
10.0639,43.355
10.0783,43.861
10.0926,44.179
10.1069,44.152
10.1213,44.041
10.1356,43.752
10.1499,43.590
10.1643,43.795
10.1786,44.214
10.1930,44.363
10.2073,44.502
10.2216,44.209
10.2360,44.165
10.2503,44.357
10.2646,44.774
10.2790,45.132
10.2933,44.844
10.3076,44.513
10.3220,44.348
10.3363,44.335
10.3506,44.718
10.3650,44.754
10.3793,45.071
10.3937,44.874
10.4080,44.171
10.4223,43.786
10.4367,43.874
10.4510,44.750
10.4653,44.906
10.4797,44.744
10.4940,44.752
10.5083,45.184
10.5227,45.923
10.5370,46.406
10.5514,46.923
10.5657,47.280
10.5800,47.436
10.5944,47.752
10.6087,47.735
10.6230,47.353
10.6374,47.154
10.6517,47.697
10.6660,48.600
10.6804,48.808
10.6947,48.645
10.7091,48.541
10.7234,48.752
10.7377,48.917
10.7521,48.853
10.7664,48.848
10.7807,48.998
10.7951,49.113
10.8094,49.233
10.8237,49.259
10.8381,49.370
10.8524,48.987
10.8667,49.043
10.8811,49.096
10.8954,49.286
10.9098,49.120
10.9241,48.855
10.9384,48.701
10.9528,48.682
10.9671,48.953
10.9814,49.662
10.9958,50.107
11.0101,50.216
11.0244,50.079
11.0388,50.316
11.0531,50.259
11.0675,50.310
11.0818,50.365
11.0961,50.647
11.1105,50.637
11.1248,50.455
11.1391,50.560
11.1535,50.592
11.1678,50.323
11.1821,50.338
11.1965,50.709
11.2108,51.128
11.2252,51.391
11.2395,51.190
11.2538,51.158
11.2682,51.237
11.2825,51.380
11.2968,51.803
11.3112,52.006
11.3255,52.143
11.3398,52.511
11.3542,52.987
11.3685,53.030
11.3828,53.152
11.3972,53.421
11.4115,53.590
11.4259,53.821
11.4402,54.269
11.4545,54.652
11.4689,55.130
11.4832,55.081
11.4975,54.925
11.5119,54.844
11.5262,54.705
11.5405,54.498
11.5549,54.524
11.5692,54.562
11.5836,54.912
11.5979,55.459
11.6122,55.624
11.6266,55.846
11.6409,56.103
11.6552,56.526
11.6696,57.085
11.6839,57.081
11.6982,56.878
11.7126,57.062
11.7269,56.936
11.7412,57.357
11.7556,57.774
11.7699,57.823
11.7843,58.011
11.7986,58.085
11.8129,58.335
11.8273,58.064
11.8416,58.128
11.8559,58.404
11.8703,58.541
11.8846,59.024
11.8989,59.158
11.9133,59.504
11.9276,59.645
11.9420,59.327
11.9563,59.688
11.9706,59.703
11.9850,59.677
11.9993,59.759
12.0136,60.015
12.0280,60.278
12.0423,60.487
12.0566,60.620
12.0710,60.833
12.0853,61.378
12.0997,61.639
12.1140,61.088
12.1283,60.752
12.1427,60.284
12.1570,59.767
12.1713,59.321
12.1857,59.882
12.2000,60.722
12.2143,61.286
12.2287,61.393
12.2430,61.652
12.2573,62.417
12.2717,63.028
12.2860,63.827
12.3004,64.466
12.3147,65.562
12.3290,66.483
12.3434,67.188
12.3577,67.677
12.3720,67.791
12.3864,67.861
12.4007,67.840
12.4150,68.188
12.4294,68.581
12.4437,68.774
12.4581,69.043
12.4724,69.682
12.4867,70.286
12.5011,70.306
12.5154,70.919
12.5297,71.216
12.5441,71.840
12.5584,72.609
12.5727,73.053
12.5871,73.237
12.6014,73.393
12.6158,73.393
12.6301,74.395
12.6444,74.821
12.6588,75.571
12.6731,75.889
12.6874,76.425
12.7018,77.071
12.7161,77.821
12.7304,78.171
12.7448,78.137
12.7591,78.551
12.7734,79.498
12.7878,80.344
12.8021,80.622
12.8165,80.893
12.8308,81.335
12.8451,81.650
12.8595,82.030
12.8738,82.263
12.8881,82.880
12.9025,83.466
12.9168,83.981
12.9311,84.511
12.9455,84.910
12.9598,85.066
12.9742,85.583
12.9885,85.885
13.0028,85.882
13.0172,86.006
13.0315,85.763
13.0458,85.628
13.0602,85.425
13.0745,85.113
13.0888,84.816
13.1032,84.940
13.1175,85.229
13.1318,85.442
13.1462,85.833
13.1605,86.167
13.1749,86.632
13.1892,87.073
13.2035,86.996
13.2179,87.427
13.2322,88.034
13.2465,88.686
13.2609,89.222
13.2752,89.654
13.2895,90.036
13.3039,90.160
13.3182,90.417
13.3326,90.393
13.3469,90.291
13.3612,90.626
13.3756,90.929
13.3899,91.434
13.4042,91.812
13.4186,91.966
13.4329,91.964
13.4472,91.863
13.4616,91.620
13.4759,91.564
13.4903,91.472
13.5046,91.348
13.5189,91.338
13.5333,91.594
13.5476,91.686
13.5619,91.750
13.5763,91.671
13.5906,91.491
13.6049,91.457
13.6193,91.150
13.6336,90.778
13.6479,90.677
13.6623,89.677
13.6766,89.400
13.6910,89.404
13.7053,89.474
13.7196,89.818
13.7340,90.162
13.7483,90.455
13.7626,90.737
13.7770,91.444
13.7913,92.004
13.8056,92.923
13.8200,93.408
13.8343,93.861
13.8487,93.885
13.8630,93.972
13.8773,93.835
13.8917,93.137
13.9060,92.874
13.9203,92.848
13.9347,92.378
13.9490,92.122
13.9633,91.761
13.9777,91.470
13.9920,91.801
14.0063,91.541
14.0207,91.885
14.0350,92.081
14.0494,92.573
14.0637,93.158
14.0780,93.329
14.0924,93.393
14.1067,93.827
14.1210,94.081
14.1354,94.536
14.1497,94.744
14.1640,95.237
14.1784,95.635
14.1927,96.017
14.2071,96.011
14.2214,95.991
14.2357,95.299
14.2501,94.784
14.2644,94.197
14.2787,94.231
14.2931,94.286
14.3074,94.340
14.3217,94.038
14.3361,93.639
14.3504,92.908
14.3648,92.641
14.3791,92.419
14.3934,92.739
14.4078,92.910
14.4221,93.451
14.4364,93.436
14.4508,93.620
14.4651,93.494
14.4794,93.530
14.4938,93.310
14.5081,93.169
14.5224,92.962
14.5368,92.665
14.5511,92.299
14.5655,92.051
14.5798,91.733
14.5941,92.109
14.6085,92.519
14.6228,92.863
14.6371,93.118
14.6515,93.329
14.6658,93.331
14.6801,93.235
14.6945,93.216
14.7088,93.126
14.7232,93.092
14.7375,93.216
14.7518,93.053
14.7662,93.143
14.7805,93.197
14.7948,93.306
14.8092,93.032
14.8235,93.152
14.8378,92.985
14.8522,92.694
14.8665,92.741
14.8809,93.137
14.8952,93.579
14.9095,93.701
14.9239,93.979
14.9382,94.115
14.9525,94.150
14.9669,94.132
14.9812,93.838
14.9955,93.705
15.0099,93.620
15.0242,93.387
15.0385,92.782
15.0529,92.658
15.0672,92.780
15.0816,92.714
15.0959,92.410
15.1102,91.985
15.1246,91.474
15.1389,91.299
15.1532,91.464
15.1676,91.690
15.1819,91.942
15.1962,92.071
15.2106,92.053
15.2249,91.780
15.2393,91.224
15.2536,90.658
15.2679,90.288
15.2823,90.045
15.2966,89.893
15.3109,89.265
15.3253,88.581
15.3396,88.263
15.3539,88.205
15.3683,88.267
15.3826,88.410
15.3969,88.641
15.4113,89.015
15.4256,89.577
15.4400,89.987
15.4543,90.310
15.4686,90.543
15.4830,90.741
15.4973,90.904
15.5116,91.244
15.5260,91.182
15.5403,90.893
15.5546,90.615
15.5690,90.466
15.5833,90.088
15.5977,90.126
15.6120,89.759
15.6263,89.184
15.6407,88.765
15.6550,88.675
15.6693,88.342
15.6837,87.656
15.6980,87.348
15.7123,87.380
15.7267,87.566
15.7410,88.038
15.7554,88.071
15.7697,87.771
15.7840,87.692
15.7984,87.786
15.8127,87.791
15.8270,87.806
15.8414,87.549
15.8557,87.370
15.8700,87.122
15.8844,86.927
15.8987,86.690
15.9130,86.376
15.9274,85.953
15.9417,85.895
15.9561,85.500
15.9704,85.774
15.9847,85.818
15.9991,85.519
16.0134,85.513
16.0277,85.647
16.0421,85.541
16.0564,85.359
16.0707,85.293
16.0851,85.374
16.0994,85.056
16.1138,84.846
16.1281,84.517
16.1424,84.274
16.1568,84.368
16.1711,84.047
16.1854,83.938
16.1998,84.045
16.2141,84.415
16.2284,84.677
16.2428,84.491
16.2571,84.222
16.2715,84.090
16.2858,84.519
16.3001,84.271
16.3145,84.011
16.3288,83.756
16.3431,83.575
16.3575,83.427
16.3718,83.169
16.3861,82.829
16.4005,82.863
16.4148,83.280
16.4291,83.130
16.4435,82.968
16.4578,82.754
16.4722,82.547
16.4865,82.534
16.5008,82.276
16.5152,82.066
16.5295,82.111
16.5438,81.895
16.5582,81.489
16.5725,81.013
16.5868,80.647
16.6012,80.387
16.6155,79.994
16.6299,79.818
16.6442,79.632
16.6585,79.547
16.6729,79.521
16.6872,79.066
16.7015,78.712
16.7159,78.694
16.7302,78.585
16.7445,78.408
16.7589,78.485
16.7732,78.459
16.7875,78.429
16.8019,78.096
16.8162,77.705
16.8306,77.387
16.8449,77.404
16.8592,77.902
16.8736,77.985
16.8879,78.088
16.9022,77.974
16.9166,78.156
16.9309,78.530
16.9452,78.387
16.9596,78.438
16.9739,78.306
16.9883,78.282
17.0026,78.077
17.0169,77.857
17.0313,77.786
17.0456,78.190
17.0599,78.301
17.0743,78.596
17.0886,78.472
17.1029,78.590
17.1173,78.778
17.1316,78.893
17.1460,78.934
17.1603,79.126
17.1746,79.605
17.1890,80.171
17.2033,80.434
17.2176,80.538
17.2320,81.124
17.2463,81.380
17.2606,81.891
17.2750,82.177
17.2893,82.241
17.3036,82.237
17.3180,81.812
17.3323,82.325
17.3467,82.201
17.3610,82.359
17.3753,82.645
17.3897,82.665
17.4040,82.571
17.4183,82.310
17.4327,82.137
17.4470,82.002
17.4613,82.081
17.4757,82.207
17.4900,82.299
17.5044,82.474
17.5187,82.650
17.5330,82.893
17.5474,82.823
17.5617,82.810
17.5760,82.810
17.5904,83.126
17.6047,83.077
17.6190,82.972
17.6334,83.216
17.6477,83.158
17.6621,83.137
17.6764,83.162
17.6907,83.254
17.7051,83.024
17.7194,82.835
17.7337,82.417
17.7481,81.838
17.7624,81.658
17.7767,81.562
17.7911,81.932
17.8054,81.861
17.8197,81.491
17.8341,81.538
17.8484,81.429
17.8628,81.280
17.8771,81.218
17.8914,81.327
17.9058,81.897
17.9201,82.444
17.9344,83.306
17.9488,83.934
17.9631,84.212
17.9774,84.246
17.9918,84.182
18.0061,84.209
18.0205,83.639
18.0348,83.848
18.0491,84.154
18.0635,84.355
18.0778,84.643
18.0921,84.780
18.1065,84.487
18.1208,84.107
18.1351,84.214
18.1495,84.293
18.1638,84.551
18.1781,84.207
18.1925,83.936
18.2068,83.906
18.2212,84.323
18.2355,84.603
18.2498,84.043
18.2642,83.767
18.2785,83.393
18.2928,82.966
18.3072,82.626
18.3215,82.647
18.3358,82.741
18.3502,82.556
18.3645,82.350
18.3789,82.165
18.3932,82.231
18.4075,82.306
18.4219,82.333
18.4362,82.137
18.4505,82.353
18.4649,82.735
18.4792,81.831
18.4935,81.718
18.5079,81.848
