Distance_(mm),Gray_Value
0.0000,56.4260
0.0144,57.0553
0.0287,57.5544
0.0431,58.6185
0.0575,59.6952
0.0718,60.9323
0.0862,61.4670
0.1006,62.1515
0.1149,62.8039
0.1293,63.1034
0.1436,63.5223
0.1580,64.1087
0.1724,64.3708
0.1867,64.7041
0.2011,64.9911
0.2155,65.1479
0.2298,64.8984
0.2442,64.7843
0.2586,65.0232
0.2729,65.5615
0.2873,65.7718
0.3017,66.2513
0.3160,66.4706
0.3304,66.6096
0.3447,66.7843
0.3591,67.1551
0.3735,67.4742
0.3878,67.8948
0.4022,68.0374
0.4166,68.6168
0.4309,68.7968
0.4453,68.9911
0.4597,69.2692
0.4740,69.7718
0.4884,70.3298
0.5028,70.8235
0.5171,71.0588
0.5315,71.2781
0.5459,71.7594
0.5602,72.3654
0.5746,72.7059
0.5889,72.9305
0.6033,73.2995
0.6177,73.6078
0.6320,73.7005
0.6464,73.8324
0.6608,74.0570
0.6751,74.2228
0.6895,74.1069
0.7039,74.1337
0.7182,74.2941
0.7326,74.5758
0.7470,75.0196
0.7613,75.2014
0.7757,75.3494
0.7901,75.4759
0.8044,75.4367
0.8188,75.6381
0.8331,75.8307
0.8475,75.8324
0.8619,75.7986
0.8762,75.7041
0.8906,75.8556
0.9050,76.0036
0.9193,76.1283
0.9337,76.1016
0.9481,76.1034
0.9624,76.2442
0.9768,76.4635
0.9912,76.5472
1.0055,76.6114
1.0199,76.7291
1.0342,76.6649
1.0486,76.7683
1.0630,76.9875
1.0773,77.0374
1.0917,76.9233
1.1061,77.0570
1.1204,77.0053
1.1348,76.9198
1.1492,77.0000
1.1635,77.0481
1.1779,77.1497
1.1923,77.3690
1.2066,77.3743
1.2210,77.0535
1.2354,77.2941
1.2497,77.2995
1.2641,77.6720
1.2784,78.1373
1.2928,78.7237
1.3072,79.0321
1.3215,79.0642
1.3359,79.4421
1.3503,79.6078
1.3646,79.9750
1.3790,80.1943
1.3934,80.2424
1.4077,80.6274
1.4221,80.9430
1.4365,81.3547
1.4508,81.6988
1.4652,81.8556
1.4795,82.3351
1.4939,82.6774
1.5083,83.0980
1.5226,83.4189
1.5370,83.6043
1.5514,83.7380
1.5657,84.3405
1.5801,84.6649
1.5945,85.3850
1.6088,85.7291
1.6232,86.1640
1.6376,86.5205
1.6519,87.1212
1.6663,87.3387
1.6807,87.7558
1.6950,88.2086
1.7094,88.9109
1.7237,89.2424
1.7381,89.4706
1.7525,89.6881
1.7668,89.8378
1.7812,90.1515
1.7956,90.3494
1.8099,90.2959
1.8243,90.5365
1.8387,90.8770
1.8530,91.2977
1.8674,91.4777
1.8818,91.6684
1.8961,91.6934
1.9105,91.9091
1.9249,92.0107
1.9392,92.1640
1.9536,92.2852
1.9679,92.4456
1.9823,92.3244
1.9967,92.4706
2.0110,92.7005
2.0254,93.1408
2.0398,93.5187
2.0541,94.0267
2.0685,94.2389
2.0829,94.5383
2.0972,94.7166
2.1116,95.0891
2.1260,95.3975
2.1403,95.6613
2.1547,95.8734
2.1690,96.3743
2.1834,96.9501
2.1978,97.3440
2.2121,97.6791
2.2265,97.9412
2.2409,98.2424
2.2552,98.4617
2.2696,98.5241
2.2840,98.5651
2.2983,98.5954
2.3127,99.0428
2.3271,99.5775
2.3414,100.0428
2.3558,100.2442
2.3702,100.4973
2.3845,100.4135
2.3989,100.8271
2.4132,100.9091
2.4276,101.1408
2.4420,101.1586
2.4563,101.4118
2.4707,101.6043
2.4851,101.9715
2.4994,102.0446
2.5138,102.1961
2.5282,102.1979
2.5425,102.1533
2.5569,102.2852
2.5713,102.5668
2.5856,102.8806
2.6000,102.8217
2.6143,103.0891
2.6287,103.4349
2.6431,103.4599
2.6574,103.4670
2.6718,103.4367
2.6862,103.7005
2.7005,104.0606
2.7149,104.1889
2.7293,104.4046
2.7436,104.4955
2.7580,104.6203
2.7724,104.9144
2.7867,105.3601
2.8011,105.7326
2.8155,105.7790
2.8298,105.6720
2.8442,105.7487
2.8585,106.0053
2.8729,106.4902
2.8873,106.7807
2.9016,106.9911
2.9160,107.1604
2.9304,107.3975
2.9447,107.6185
2.9591,107.7308
2.9735,108.1069
2.9878,108.3369
3.0022,108.5472
3.0166,108.7130
3.0309,108.8806
3.0453,108.7968
3.0596,108.8948
3.0740,109.1194
3.0884,109.3476
3.1027,109.3743
3.1171,109.4011
3.1315,109.4118
3.1458,109.7130
3.1602,109.8324
3.1746,110.0606
3.1889,110.1622
3.2033,110.1640
3.2177,110.3529
3.2320,110.4046
3.2464,110.2834
3.2608,109.7273
3.2751,109.4652
3.2895,109.2193
3.3038,109.1497
3.3182,109.1622
3.3326,109.0196
3.3469,108.5740
3.3613,108.2478
3.3757,108.0802
3.3900,108.2246
3.4044,108.0713
3.4188,108.1248
3.4331,107.8431
3.4475,107.6114
3.4619,107.2032
3.4762,106.9216
3.4906,106.5455
3.5050,106.3405
3.5193,106.1569
3.5337,105.9020
3.5480,105.6221
3.5624,105.5544
3.5768,105.4652
3.5911,105.2923
3.6055,105.2406
3.6199,105.0642
3.6342,104.5758
3.6486,104.2460
3.6630,103.8841
3.6773,103.6399
3.6917,103.5597
3.7061,103.3387
3.7204,103.1034
3.7348,102.8663
3.7491,102.4902
3.7635,102.3351
3.7779,102.0250
3.7922,101.4759
3.8066,100.7094
3.8210,99.8324
3.8353,99.3565
3.8497,99.4332
3.8641,98.7825
3.8784,98.2799
3.8928,97.7701
3.9072,97.2371
3.9215,96.7130
3.9359,96.0891
3.9503,95.3779
3.9646,94.8360
3.9790,94.3405
3.9933,93.9964
4.0077,93.2923
4.0221,92.5098
4.0364,92.0499
4.0508,91.4349
4.0652,90.4563
4.0795,89.3155
4.0939,88.6310
4.1083,88.0428
4.1226,87.1212
4.1370,86.5169
4.1514,85.8075
4.1657,84.9822
4.1801,84.1943
4.1944,83.5080
4.2088,83.0660
4.2232,82.3850
4.2375,81.8307
4.2519,81.2959
4.2663,80.6471
4.2806,79.6132
4.2950,78.9269
4.3094,78.4759
4.3237,77.6025
4.3381,76.7130
4.3525,75.8431
4.3668,75.2050
4.3812,74.2371
4.3956,73.3904
4.4099,72.0374
4.4243,71.3369
4.4386,70.6898
4.4530,70.3672
4.4674,69.9626
4.4817,69.6934
4.4961,69.1658
4.5105,68.7665
4.5248,68.3458
4.5392,67.9804
4.5536,67.7665
4.5679,66.9091
4.5823,66.4029
4.5967,66.1194
4.6110,65.7594
4.6254,65.1889
4.6398,64.5526
4.6541,64.3850
4.6685,64.0285
4.6828,63.6613
4.6972,62.9964
4.7116,62.4813
4.7259,61.8556
4.7403,61.2228
4.7547,60.6881
4.7690,60.4260
4.7834,59.7897
4.7978,59.0214
4.8121,58.4831
4.8265,58.0428
4.8409,57.5062
4.8552,57.0089
4.8696,56.2692
4.8839,55.2032
4.8983,54.5936
4.9127,54.1979
4.9270,53.5775
4.9414,53.2638
4.9558,52.7718
4.9701,52.1765
4.9845,51.9055
4.9989,51.6488
5.0132,50.8930
5.0276,50.3547
5.0420,49.7344
5.0563,49.3422
5.0707,49.5882
5.0851,49.3583
5.0994,48.7522
5.1138,48.0374
5.1281,47.6970
5.1425,47.2977
5.1569,46.8075
5.1712,46.0428
5.1856,45.5312
5.2000,45.2816
5.2143,44.9216
5.2287,44.4403
5.2431,43.7130
5.2574,43.4795
5.2718,43.0802
5.2862,42.6471
5.3005,42.4670
5.3149,42.1390
5.3292,41.6934
5.3436,41.2175
5.3580,40.5882
5.3723,40.2941
5.3867,40.1159
5.4011,39.8538
5.4154,39.6364
5.4298,39.3405
5.4442,38.9697
5.4585,38.5187
5.4729,37.8128
5.4873,37.6150
5.5016,37.1159
5.5160,36.6916
5.5304,36.7059
5.5447,36.2442
5.5591,35.6863
5.5734,35.3922
5.5878,35.1872
5.6022,35.0053
5.6165,34.5633
5.6309,34.3173
5.6453,33.9037
5.6596,33.6453
5.6740,33.5740
5.6884,33.1087
5.7027,32.7059
5.7171,32.2139
5.7315,31.7914
5.7458,31.6881
5.7602,31.4759
5.7746,31.2210
5.7889,31.0178
5.8033,30.6898
5.8176,30.2816
5.8320,30.1212
5.8464,30.3262
5.8607,30.0517
5.8751,29.6916
5.8895,29.2478
5.9038,29.1123
5.9182,29.1212
5.9326,28.7986
5.9469,28.3636
5.9613,28.1444
5.9757,28.0446
5.9900,27.9287
6.0044,27.6720
6.0187,27.0766
6.0331,26.9911
6.0475,26.5651
6.0618,26.3690
6.0762,25.8717
6.0906,25.2567
6.1049,24.9412
6.1193,24.7273
6.1337,24.3280
6.1480,24.1515
6.1624,24.2210
6.1768,23.8342
6.1911,23.6488
6.2055,23.4991
6.2199,22.7576
6.2342,22.4456
6.2486,22.3173
6.2629,22.2086
6.2773,22.2121
6.2917,22.3690
6.3060,22.3512
6.3204,22.4242
6.3348,22.5579
6.3491,22.3298
6.3635,22.1693
6.3779,21.9127
6.3922,21.6257
6.4066,21.6114
6.4210,21.4456
6.4353,21.3619
6.4497,21.6578
6.4640,21.1765
6.4784,20.9020
6.4928,21.5829
6.5071,21.5633
6.5215,21.4510
6.5359,21.2763
6.5502,21.5241
6.5646,21.6078
6.5790,21.6096
6.5933,21.3832
6.6077,21.6649
6.6221,21.5455
6.6364,21.3761
6.6508,21.3066
6.6652,21.3815
6.6795,21.1479
6.6939,21.0642
6.7082,21.0053
6.7226,21.2906
6.7370,21.1301
6.7513,21.2175
6.7657,21.3084
6.7801,21.2799
6.7944,21.0891
6.8088,20.5882
6.8232,20.3922
6.8375,20.9554
6.8519,21.1551
6.8663,20.6061
6.8806,20.3672
6.8950,21.0214
6.9094,22.1087
6.9237,23.0428
6.9381,23.1355
6.9524,22.9465
6.9668,23.0232
6.9812,23.0071
6.9955,23.0695
7.0099,23.0820
7.0243,23.2050
7.0386,23.2264
7.0530,23.3601
7.0674,23.6132
7.0817,23.0250
7.0961,23.1230
7.1105,23.1212
7.1248,23.0428
7.1392,23.0570
7.1535,23.1586
7.1679,23.1230
7.1823,22.7273
7.1966,22.9091
7.2110,23.2032
7.2254,23.4528
7.2397,23.4278
7.2541,23.4314
7.2685,23.3387
7.2828,23.2674
7.2972,23.3405
7.3116,22.9269
7.3259,22.4545
7.3403,22.3975
7.3547,22.6381
7.3690,22.5918
7.3834,22.7166
7.3977,22.7879
7.4121,22.8503
7.4265,22.7647
7.4408,23.2299
7.4552,23.6203
7.4696,23.3030
7.4839,23.0856
7.4983,23.0731
7.5127,23.5258
7.5270,23.4349
7.5414,22.9340
7.5558,23.4456
7.5701,23.4777
7.5845,23.1979
7.5988,22.8467
7.6132,22.7522
7.6276,22.7344
7.6419,22.5116
7.6563,22.5668
7.6707,22.8734
7.6850,22.9020
7.6994,22.8966
7.7138,22.9180
7.7281,22.7807
7.7425,22.7754
7.7569,22.5971
7.7712,22.5365
7.7856,22.4991
7.8000,22.7184
7.8143,22.9465
7.8287,23.3369
7.8430,23.3512
7.8574,23.1943
7.8718,23.0980
7.8861,22.7094
7.9005,22.7326
7.9149,22.7986
7.9292,22.6827
7.9436,22.7487
7.9580,22.7469
7.9723,22.7094
7.9867,22.7683
8.0011,22.7130
8.0154,22.4991
8.0298,22.3690
8.0442,21.9037
8.0585,21.6649
8.0729,21.4456
8.0872,21.0053
8.1016,21.0695
8.1160,21.8556
8.1303,22.0963
8.1447,22.2727
8.1591,22.1355
8.1734,22.0677
8.1878,21.8396
8.2022,21.7273
8.2165,21.6132
8.2309,21.4171
8.2453,21.6595
8.2596,21.8200
8.2740,21.6150
8.2883,21.3565
8.3027,21.1676
8.3171,21.4082
8.3314,21.4278
8.3458,20.9929
8.3602,20.8200
8.3745,20.9697
8.3889,20.7629
8.4033,20.3654
8.4176,20.4884
8.4320,20.9376
8.4464,20.7807
8.4607,20.6239
8.4751,20.5668
8.4895,20.2709
8.5038,19.9055
8.5182,19.9822
8.5325,19.9394
8.5469,19.7059
8.5613,19.7005
8.5756,20.2193
8.5900,20.3316
8.6044,20.4171
8.6187,20.2959
8.6331,19.9608
8.6475,20.0873
8.6618,20.5704
8.6762,20.9554
8.6906,20.3922
8.7049,20.1426
8.7193,20.3797
8.7336,21.0553
8.7480,21.6435
8.7624,22.1123
8.7767,22.3975
8.7911,22.4706
8.8055,22.2941
8.8198,22.5241
8.8342,22.7665
8.8486,23.0660
8.8629,23.3957
8.8773,24.0392
8.8917,24.6417
8.9060,24.5722
8.9204,24.5775
8.9348,24.1961
8.9491,24.4011
8.9635,25.1301
8.9778,25.4171
8.9922,25.1640
9.0066,25.0107
9.0209,25.3565
9.0353,26.0303
9.0497,26.3422
9.0640,26.9750
9.0784,27.1640
9.0928,27.3369
9.1071,27.3547
9.1215,27.0802
9.1359,26.6970
9.1502,25.9358
9.1646,25.4438
9.1789,25.6720
9.1933,26.4599
9.2077,26.8271
9.2220,26.2032
9.2364,25.5045
9.2508,25.4742
9.2651,25.5775
9.2795,25.4385
9.2939,25.5597
9.3082,25.6257
9.3226,25.9929
9.3370,26.7914
9.3513,27.5526
9.3657,27.7790
9.3801,27.7005
9.3944,27.5882
9.4088,27.5472
9.4231,27.1889
9.4375,27.0214
9.4519,26.9251
9.4662,27.1925
9.4806,27.3226
9.4950,27.8485
9.5093,27.8520
9.5237,27.8770
9.5381,27.5579
9.5524,26.9501
9.5668,27.1658
9.5812,27.5704
9.5955,27.3173
9.6099,26.9020
9.6243,26.7522
9.6386,26.9216
9.6530,27.5116
9.6673,28.0018
9.6817,27.8396
9.6961,27.7130
9.7104,27.6916
9.7248,27.7291
9.7392,27.2709
9.7535,26.9554
9.7679,26.9109
9.7823,27.2424
9.7966,28.0856
9.8110,28.7041
9.8254,28.5223
9.8397,28.0107
9.8541,27.2781
9.8684,26.9091
9.8828,27.8253
9.8972,27.9964
9.9115,26.7932
9.9259,26.3886
9.9403,28.2032
9.9546,30.8004
9.9690,32.1444
9.9834,33.7201
9.9977,34.5544
10.0121,34.5668
10.0265,33.4848
10.0408,31.6310
10.0552,29.7718
10.0696,28.9750
10.0839,28.8895
10.0983,28.3654
10.1126,27.3440
10.1270,26.0267
10.1414,25.2121
10.1557,24.4581
10.1701,24.2995
10.1845,24.9180
10.1988,24.4742
10.2132,23.3333
10.2276,22.7665
10.2419,23.0749
10.2563,24.0802
10.2707,25.3209
10.2850,26.0980
10.2994,26.8039
10.3137,27.3529
10.3281,27.4759
10.3425,26.4403
10.3568,25.5045
10.3712,25.4991
10.3856,25.6578
10.3999,25.6827
10.4143,26.1105
10.4287,25.5508
10.4430,24.2210
10.4574,23.6275
10.4718,24.2834
10.4861,25.9964
10.5005,26.9020
10.5149,26.8645
10.5292,26.3815
10.5436,27.1765
10.5579,27.8235
10.5723,28.1676
10.5867,28.6221
10.6010,28.8075
10.6154,28.4973
10.6298,28.2086
10.6441,27.8217
10.6585,27.8307
10.6729,28.3440
10.6872,28.6239
10.7016,29.1872
10.7160,29.1390
10.7303,28.5205
10.7447,28.4759
10.7591,28.3137
10.7734,27.8503
10.7878,27.5936
10.8021,27.2014
10.8165,25.9269
10.8309,24.6791
10.8452,25.0802
10.8596,26.6506
10.8740,27.9216
10.8883,28.3512
10.9027,28.0143
10.9171,27.6560
10.9314,27.8182
10.9458,27.7005
10.9602,27.4046
10.9745,27.1390
10.9889,26.9180
11.0032,27.0820
11.0176,27.3601
11.0320,27.2371
11.0463,27.3102
11.0607,27.5241
11.0751,27.1586
11.0894,27.2674
11.1038,27.1979
11.1182,27.1854
11.1325,27.1729
11.1469,27.1729
11.1613,27.2727
11.1756,27.1747
11.1900,27.2371
11.2044,26.9590
11.2187,26.5793
11.2331,26.3993
11.2474,26.4385
11.2618,26.8752
11.2762,27.0660
11.2905,27.2906
11.3049,27.4848
11.3193,28.1159
11.3336,28.4189
11.3480,28.3030
11.3624,28.2531
11.3767,28.5971
11.3911,29.1123
11.4055,29.5455
11.4198,29.2175
11.4342,28.0588
11.4485,27.7986
11.4629,28.0945
11.4773,28.5633
11.4916,28.6453
11.5060,28.9947
11.5204,29.1283
11.5347,29.0196
11.5491,28.8431
11.5635,28.7415
11.5778,28.7932
11.5922,29.1141
11.6066,29.2567
11.6209,28.8289
11.6353,28.0570
11.6497,27.6684
11.6640,27.9893
11.6784,28.3939
11.6927,28.1230
11.7071,28.1194
11.7215,27.5241
11.7358,26.7148
11.7502,26.6898
11.7646,27.3262
11.7789,27.6221
11.7933,27.8360
11.8077,27.6310
11.8220,27.3583
11.8364,26.9501
11.8508,26.8824
11.8651,27.3939
11.8795,27.6631
11.8939,27.6203
11.9082,27.8556
11.9226,28.4332
11.9369,28.4242
11.9513,28.2157
11.9657,28.1141
11.9800,28.0178
11.9944,27.7772
12.0088,27.9733
12.0231,27.7504
12.0375,27.1337
12.0519,27.0000
12.0662,27.3922
12.0806,27.4349
12.0950,27.2210
12.1093,27.2995
12.1237,27.4225
12.1380,27.3636
12.1524,27.4474
12.1668,27.6221
12.1811,27.6881
12.1955,27.5490
12.2099,27.5668
12.2242,27.7326
12.2386,27.9572
12.2530,28.1515
12.2673,27.8645
12.2817,27.7308
12.2961,27.7469
12.3104,27.8057
12.3248,27.7914
12.3392,28.0481
12.3535,28.1889
12.3679,28.1390
12.3822,27.8663
12.3966,27.9768
12.4110,28.1444
12.4253,28.0214
12.4397,28.0553
12.4541,28.0303
12.4684,28.2424
12.4828,28.0036
12.4972,27.8111
12.5115,27.7576
12.5259,28.2299
12.5403,28.9697
12.5546,29.7344
12.5690,30.2264
12.5833,30.2442
12.5977,29.9127
12.6121,30.0428
12.6264,30.5401
12.6408,30.9465
12.6552,30.9554
12.6695,31.2995
12.6839,31.9590
12.6983,32.3387
12.7126,32.4545
12.7270,33.1551
12.7414,33.0963
12.7557,32.9768
12.7701,32.9590
12.7845,32.9162
12.7988,32.9768
12.8132,33.4029
12.8275,33.2959
12.8419,33.2299
12.8563,33.2246
12.8706,33.2585
12.8850,32.7255
12.8994,33.0481
12.9137,33.8877
12.9281,34.4617
12.9425,34.2745
12.9568,34.3512
12.9712,34.4866
12.9856,35.0053
12.9999,35.3743
13.0143,35.6417
13.0287,35.6168
13.0430,35.3155
13.0574,35.2014
13.0717,34.8021
13.0861,34.9679
13.1005,35.5383
13.1148,35.7522
13.1292,35.8021
13.1436,35.7308
13.1579,35.5597
13.1723,35.7683
13.1867,36.1141
13.2010,36.3494
13.2154,36.8075
13.2298,36.8217
13.2441,37.0214
13.2585,37.1515
13.2728,37.5187
13.2872,37.3815
13.3016,37.3458
13.3159,37.0838
13.3303,36.7808
13.3447,36.4545
13.3590,36.7291
13.3734,36.8111
13.3878,37.0196
13.4021,37.1355
13.4165,38.3904
13.4309,41.0339
13.4452,43.9572
13.4596,46.2763
13.4740,47.6542
13.4883,48.3761
13.5027,48.7326
13.5170,48.7201
13.5314,49.6257
13.5458,49.7023
13.5601,48.8111
13.5745,48.3583
13.5889,49.3512
13.6032,50.1907
13.6176,50.5508
13.6320,50.9697
13.6463,51.1355
13.6607,51.6007
13.6751,52.1087
13.6894,52.0660
13.7038,52.1052
13.7181,52.3726
13.7325,52.6578
13.7469,51.7094
13.7612,51.9055
13.7756,53.1961
13.7900,54.7843
13.8043,55.5811
13.8187,56.3262
13.8331,56.7701
13.8474,57.3494
13.8618,57.8449
13.8762,58.2709
13.8905,59.2638
13.9049,60.3922
13.9193,60.9626
13.9336,61.6078
13.9480,62.2870
13.9623,62.6970
13.9767,63.5758
13.9911,63.3886
14.0054,62.9911
14.0198,62.5971
14.0342,61.8592
14.0485,61.6346
14.0629,61.8610
14.0773,61.9501
14.0916,63.0980
14.1060,63.9679
14.1204,64.9840
14.1347,65.6025
14.1491,65.4617
14.1635,65.6346
14.1778,66.3226
14.1922,67.1373
14.2065,68.2852
14.2209,68.7023
14.2353,69.4902
14.2496,69.8877
14.2640,70.8146
14.2784,72.1925
14.2927,73.3975
14.3071,73.8592
14.3215,74.4474
14.3358,75.0713
14.3502,75.5882
14.3646,75.7807
14.3789,76.0588
14.3933,76.9287
14.4076,77.8717
14.4220,78.3369
14.4364,78.6631
14.4507,79.1872
14.4651,79.6239
14.4795,80.1604
14.4938,80.9893
14.5082,81.3476
14.5226,81.5633
14.5369,81.6417
14.5513,82.1444
14.5657,82.7718
14.5800,83.7772
14.5944,84.5615
14.6088,84.7914
14.6231,85.5882
14.6375,86.1996
14.6518,86.8021
14.6662,87.2424
14.6806,87.9643
14.6949,89.0196
14.7093,89.6595
14.7237,89.9394
14.7380,90.7166
14.7524,91.1069
14.7668,91.4955
14.7811,91.9857
14.7955,92.3868
14.8099,92.8627
14.8242,93.1996
14.8386,93.6007
14.8529,94.2620
14.8673,94.7576
14.8817,95.2175
14.8960,95.5169
14.9104,95.3512
14.9248,95.8734
14.9391,96.2335
14.9535,96.7594
14.9679,96.9305
14.9822,97.3583
14.9966,97.6988
15.0110,98.2353
15.0253,98.2959
15.0397,98.7594
15.0541,98.9394
15.0684,98.8164
15.0828,98.7112
15.0971,98.9180
15.1115,99.1248
15.1259,99.3280
15.1402,99.2139
15.1546,99.1854
15.1690,99.3779
15.1833,99.8289
15.1977,100.4528
15.2121,100.6578
15.2264,100.8235
15.2408,100.9964
15.2552,101.4438
15.2695,101.4973
15.2839,101.4135
15.2982,101.5241
15.3126,101.6916
15.3270,101.9661
15.3413,102.3333
15.3557,102.5651
15.3701,102.4082
15.3844,102.4742
15.3988,102.5900
15.4132,102.6168
15.4275,102.4599
15.4419,102.1515
15.4563,101.6774
15.4706,101.3422
15.4850,101.0660
15.4994,100.6257
15.5137,100.3708
15.5281,100.4082
15.5424,101.2763
15.5568,102.2353
15.5712,102.9483
15.5855,103.8734
15.5999,104.2513
15.6143,104.7130
15.6286,105.0535
15.6430,105.4349
15.6574,105.8164
15.6717,105.8645
15.6861,105.2602
15.7005,105.7504
15.7148,105.7914
15.7292,105.6524
15.7436,105.1658
15.7579,104.3886
15.7723,103.9554
15.7866,103.8877
15.8010,104.1783
15.8154,104.1123
15.8297,103.9251
15.8441,103.5562
15.8585,103.3815
15.8728,102.9323
15.8872,102.8200
15.9016,102.5615
15.9159,102.5205
15.9303,102.3280
15.9447,102.5134
15.9590,102.1373
15.9734,101.1979
15.9877,100.3458
16.0021,100.1676
16.0165,100.3173
16.0308,100.3458
16.0452,100.5900
16.0596,100.5793
16.0739,100.2834
16.0883,99.3173
16.1027,97.9697
16.1170,96.4706
16.1314,95.1408
16.1458,94.4938
16.1601,94.1943
16.1745,94.1640
16.1889,94.0517
16.2032,94.0553
16.2176,93.9679
16.2319,93.7647
16.2463,94.1907
16.2607,94.9857
16.2750,94.8592
16.2894,94.9340
16.3038,95.1729
16.3181,95.4385
16.3325,95.7077
16.3469,96.0535
16.3612,96.0071
16.3756,96.3672
16.3900,96.5472
16.4043,96.4403
16.4187,96.2870
16.4331,95.9073
16.4474,95.5775
16.4618,95.1747
16.4761,94.9643
16.4905,94.8503
16.5049,94.1604
16.5192,93.6007
16.5336,93.0499
16.5480,92.7344
16.5623,92.3048
16.5767,91.9537
16.5911,91.0089
16.6054,90.2157
16.6198,89.5009
16.6342,89.6738
16.6485,89.5936
16.6629,89.8271
16.6772,90.0856
16.6916,90.6364
16.7060,91.1159
16.7203,91.8253
16.7347,91.9519
16.7491,92.1889
16.7634,92.3244
16.7778,91.9305
16.7922,90.7201
16.8065,89.3726
16.8209,88.8307
16.8353,89.0927
16.8496,89.4510
16.8640,90.0570
16.8784,90.5900
16.8927,90.8271
16.9071,91.3119
16.9214,91.9073
16.9358,92.3262
16.9502,92.3280
16.9645,92.0374
16.9789,91.8627
16.9933,91.3886
17.0076,90.5526
17.0220,89.9750
17.0364,89.3369
17.0507,88.3797
17.0651,88.0499
17.0795,88.0909
17.0938,88.2157
17.1082,88.3084
17.1225,88.4581
17.1369,88.3779
17.1513,88.3619
17.1656,87.6435
17.1800,86.7701
17.1944,85.1676
17.2087,84.0392
17.2231,83.3280
17.2375,83.3636
17.2518,82.9697
17.2662,82.2175
17.2806,81.6310
17.2949,81.2959
17.3093,81.3797
17.3237,81.6720
17.3380,81.6168
17.3524,81.8485
17.3667,82.3654
17.3811,83.2014
17.3955,83.8877
17.4098,84.0196
17.4242,83.7986
17.4386,83.6898
17.4529,83.4991
17.4673,83.0463
17.4817,82.2389
17.4960,81.7825
17.5104,81.5579
17.5248,81.2870
17.5391,80.7736
17.5535,80.6667
17.5678,80.3405
17.5822,80.1907
17.5966,80.0392
17.6109,79.9055
17.6253,79.7433
17.6397,79.5312
17.6540,79.0285
17.6684,78.8360
17.6828,78.5989
17.6971,78.5811
17.7115,78.3066
17.7259,77.6257
17.7402,76.9216
17.7546,76.9768
17.7690,77.4848
17.7833,78.3690
17.7977,78.9697
17.8120,78.9875
17.8264,79.0606
17.8408,78.7148
17.8551,78.2763
17.8695,77.6168
17.8839,77.0499
17.8982,76.5437
17.9126,76.3512
17.9270,76.5597
17.9413,76.4706
17.9557,76.5009
17.9701,76.5829
17.9844,76.6203
17.9988,76.9929
18.0131,77.5829
18.0275,78.1551
18.0419,78.5152
18.0562,79.0517
18.0706,79.2389
18.0850,79.0143
18.0993,78.4938
18.1137,77.9643
18.1281,78.0909
18.1424,77.8307
18.1568,77.3476
18.1712,76.6542
18.1855,76.0963
18.1999,75.6898
18.2143,75.3405
18.2286,75.5276
18.2430,75.6898
18.2573,75.6435
18.2717,75.3529
18.2861,75.6702
18.3004,77.0250
18.3148,78.4474
18.3292,79.2692
18.3435,79.1248
18.3579,78.5704
18.3723,77.6988
18.3866,77.0891
